3998.08507	-0.00011
3997.12075	-0.00011
3996.15642	-0.00011
3995.19210	-0.00013
3994.22778	-0.00016
3993.26345	-0.00018
3992.29913	-0.00021
3991.33481	-0.00022
3990.37048	-0.00023
3989.40616	-0.00022
3988.44183	-0.00020
3987.47751	-0.00018
3986.51319	-0.00016
3985.54886	-0.00015
3984.58454	-0.00015
3983.62022	-0.00015
3982.65589	-0.00016
3981.69157	-0.00016
3980.72725	-0.00016
3979.76292	-0.00015
3978.79860	-0.00014
3977.83428	-0.00014
3976.86995	-0.00016
3975.90563	-0.00020
3974.94131	-0.00024
3973.97698	-0.00028
3973.01266	-0.00031
3972.04834	-0.00030
3971.08401	-0.00028
3970.11969	-0.00025
3969.15537	-0.00022
3968.19104	-0.00020
3967.22672	-0.00019
3966.26240	-0.00019
3965.29807	-0.00019
3964.33375	-0.00018
3963.36942	-0.00017
3962.40510	-0.00016
3961.44078	-0.00017
3960.47645	-0.00018
3959.51213	-0.00021
3958.54781	-0.00023
3957.58348	-0.00025
3956.61916	-0.00025
3955.65484	-0.00023
3954.69051	-0.00020
3953.72619	-0.00017
3952.76187	-0.00016
3951.79754	-0.00015
3950.83322	-0.00015
3949.86890	-0.00014
3948.90457	-0.00013
3947.94025	-0.00013
3946.97593	-0.00014
3946.01160	-0.00015
3945.04728	-0.00014
3944.08296	-0.00012
3943.11863	-0.00009
3942.15431	-0.00009
3941.18999	-0.00009
3940.22566	-0.00010
3939.26134	-0.00011
3938.29701	-0.00011
3937.33269	-0.00013
3936.36837	-0.00014
3935.40404	-0.00013
3934.43972	-0.00011
3933.47540	-0.00009
3932.51107	-0.00008
3931.54675	-0.00011
3930.58243	-0.00016
3929.61810	-0.00021
3928.65378	-0.00023
3927.68946	-0.00023
3926.72513	-0.00020
3925.76081	-0.00016
3924.79649	-0.00014
3923.83216	-0.00015
3922.86784	-0.00018
3921.90352	-0.00021
3920.93919	-0.00022
3919.97487	-0.00022
3919.01055	-0.00020
3918.04622	-0.00018
3917.08190	-0.00017
3916.11758	-0.00019
3915.15325	-0.00022
3914.18893	-0.00023
3913.22460	-0.00021
3912.26028	-0.00018
3911.29596	-0.00015
3910.33163	-0.00016
3909.36731	-0.00018
3908.40299	-0.00022
3907.43866	-0.00023
3906.47434	-0.00020
3905.51002	-0.00014
3904.54569	-0.00007
3903.58137	-0.00005
3902.61705	-0.00006
3901.65272	-0.00010
3900.68840	-0.00014
3899.72408	-0.00020
3898.75975	-0.00027
3897.79543	-0.00036
3896.83111	-0.00043
3895.86678	-0.00047
3894.90246	-0.00045
3893.93814	-0.00037
3892.97381	-0.00026
3892.00949	-0.00018
3891.04517	-0.00019
3890.08084	-0.00029
3889.11652	-0.00036
3888.15219	-0.00034
3887.18787	-0.00021
3886.22355	-0.00010
3885.25922	-0.00009
3884.29490	-0.00018
3883.33058	-0.00028
3882.36625	-0.00029
3881.40193	-0.00026
3880.43761	-0.00024
3879.47328	-0.00031
3878.50896	-0.00041
3877.54464	-0.00046
3876.58031	-0.00045
3875.61599	-0.00039
3874.65167	-0.00036
3873.68734	-0.00038
3872.72302	-0.00037
3871.75870	-0.00029
3870.79437	-0.00020
3869.83005	-0.00019
3868.86573	-0.00029
3867.90140	-0.00041
3866.93708	-0.00044
3865.97276	-0.00037
3865.00843	-0.00028
3864.04411	-0.00023
3863.07978	-0.00024
3862.11546	-0.00027
3861.15114	-0.00030
3860.18681	-0.00037
3859.22249	-0.00048
3858.25817	-0.00059
3857.29384	-0.00060
3856.32952	-0.00042
3855.36520	-0.00012
3854.40087	0.00013
3853.43655	0.00017
3852.47223	-0.00004
3851.50790	-0.00035
3850.54358	-0.00059
3849.57926	-0.00068
3848.61493	-0.00065
3847.65061	-0.00055
3846.68629	-0.00043
3845.72196	-0.00032
3844.75764	-0.00023
3843.79332	-0.00020
3842.82899	-0.00024
3841.86467	-0.00031
3840.90035	-0.00032
3839.93602	-0.00024
3838.97170	-0.00012
3838.00738	-0.00006
3837.04305	-0.00012
3836.07873	-0.00026
3835.11440	-0.00036
3834.15008	-0.00037
3833.18576	-0.00029
3832.22143	-0.00022
3831.25711	-0.00021
3830.29279	-0.00024
3829.32846	-0.00027
3828.36414	-0.00028
3827.39982	-0.00028
3826.43549	-0.00030
3825.47117	-0.00036
3824.50685	-0.00038
3823.54252	-0.00030
3822.57820	-0.00017
3821.61388	-0.00011
3820.64955	-0.00020
3819.68523	-0.00036
3818.72091	-0.00042
3817.75658	-0.00028
3816.79226	-0.00008
3815.82794	0.00002
3814.86361	-0.00006
3813.89929	-0.00023
3812.93497	-0.00036
3811.97064	-0.00041
3811.00632	-0.00040
3810.04199	-0.00036
3809.07767	-0.00028
3808.11335	-0.00020
3807.14902	-0.00020
3806.18470	-0.00032
3805.22038	-0.00046
3804.25605	-0.00048
3803.29173	-0.00031
3802.32741	-0.00008
3801.36308	0.00001
3800.39876	-0.00010
3799.43444	-0.00030
3798.47011	-0.00041
3797.50579	-0.00038
3796.54147	-0.00028
3795.57714	-0.00021
3794.61282	-0.00018
3793.64850	-0.00019
3792.68417	-0.00019
3791.71985	-0.00018
3790.75553	-0.00018
3789.79120	-0.00017
3788.82688	-0.00017
3787.86256	-0.00016
3786.89823	-0.00016
3785.93391	-0.00017
3784.96958	-0.00019
3784.00526	-0.00023
3783.04094	-0.00026
3782.07661	-0.00027
3781.11229	-0.00025
3780.14797	-0.00022
3779.18364	-0.00024
3778.21932	-0.00030
3777.25500	-0.00038
3776.29067	-0.00046
3775.32635	-0.00052
3774.36203	-0.00056
3773.39770	-0.00058
3772.43338	-0.00055
3771.46906	-0.00048
3770.50473	-0.00041
3769.54041	-0.00039
3768.57609	-0.00040
3767.61176	-0.00042
3766.64744	-0.00041
3765.68312	-0.00039
3764.71879	-0.00040
3763.75447	-0.00043
3762.79015	-0.00043
3761.82582	-0.00039
3760.86150	-0.00031
3759.89717	-0.00026
3758.93285	-0.00026
3757.96853	-0.00032
3757.00420	-0.00043
3756.03988	-0.00053
3755.07556	-0.00056
3754.11123	-0.00050
3753.14691	-0.00036
3752.18259	-0.00023
3751.21826	-0.00019
3750.25394	-0.00026
3749.28962	-0.00046
3748.32529	-0.00067
3747.36097	-0.00071
3746.39665	-0.00051
3745.43232	-0.00020
3744.46800	-0.00003
3743.50368	-0.00014
3742.53935	-0.00042
3741.57503	-0.00064
3740.61071	-0.00069
3739.64638	-0.00059
3738.68206	-0.00044
3737.71774	-0.00031
3736.75341	-0.00024
3735.78909	-0.00025
3734.82476	-0.00030
3733.86044	-0.00034
3732.89612	-0.00035
3731.93179	-0.00037
3730.96747	-0.00044
3730.00315	-0.00052
3729.03882	-0.00053
3728.07450	-0.00046
3727.11018	-0.00037
3726.14585	-0.00033
3725.18153	-0.00035
3724.21721	-0.00040
3723.25288	-0.00044
3722.28856	-0.00047
3721.32424	-0.00051
3720.35991	-0.00056
3719.39559	-0.00062
3718.43127	-0.00069
3717.46694	-0.00077
3716.50262	-0.00083
3715.53830	-0.00084
3714.57397	-0.00077
3713.60965	-0.00064
3712.64533	-0.00053
3711.68100	-0.00051
3710.71668	-0.00057
3709.75235	-0.00067
3708.78803	-0.00077
3707.82371	-0.00084
3706.85938	-0.00088
3705.89506	-0.00090
3704.93074	-0.00089
3703.96641	-0.00084
3703.00209	-0.00078
3702.03777	-0.00073
3701.07344	-0.00073
3700.10912	-0.00077
3699.14480	-0.00081
3698.18047	-0.00084
3697.21615	-0.00086
3696.25183	-0.00089
3695.28750	-0.00093
3694.32318	-0.00096
3693.35886	-0.00098
3692.39453	-0.00098
3691.43021	-0.00093
3690.46589	-0.00086
3689.50156	-0.00080
3688.53724	-0.00083
3687.57292	-0.00098
3686.60859	-0.00118
3685.64427	-0.00133
3684.67994	-0.00136
3683.71562	-0.00131
3682.75130	-0.00127
3681.78697	-0.00128
3680.82265	-0.00137
3679.85833	-0.00148
3678.89400	-0.00154
3677.92968	-0.00149
3676.96536	-0.00137
3676.00103	-0.00133
3675.03671	-0.00146
3674.07239	-0.00171
3673.10806	-0.00189
3672.14374	-0.00188
3671.17942	-0.00174
3670.21509	-0.00166
3669.25077	-0.00173
3668.28645	-0.00188
3667.32212	-0.00199
3666.35780	-0.00202
3665.39348	-0.00197
3664.42915	-0.00192
3663.46483	-0.00189
3662.50051	-0.00192
3661.53618	-0.00198
3660.57186	-0.00206
3659.60753	-0.00211
3658.64321	-0.00209
3657.67889	-0.00205
3656.71456	-0.00204
3655.75024	-0.00214
3654.78592	-0.00231
3653.82159	-0.00245
3652.85727	-0.00246
3651.89295	-0.00234
3650.92862	-0.00218
3649.96430	-0.00208
3648.99998	-0.00211
3648.03565	-0.00224
3647.07133	-0.00241
3646.10701	-0.00254
3645.14268	-0.00260
3644.17836	-0.00257
3643.21404	-0.00249
3642.24971	-0.00240
3641.28539	-0.00232
3640.32107	-0.00227
3639.35674	-0.00226
3638.39242	-0.00229
3637.42810	-0.00234
3636.46377	-0.00239
3635.49945	-0.00242
3634.53512	-0.00246
3633.57080	-0.00251
3632.60648	-0.00253
3631.64215	-0.00247
3630.67783	-0.00232
3629.71351	-0.00218
3628.74918	-0.00216
3627.78486	-0.00226
3626.82054	-0.00242
3625.85621	-0.00251
3624.89189	-0.00252
3623.92757	-0.00248
3622.96324	-0.00243
3621.99892	-0.00238
3621.03460	-0.00233
3620.07027	-0.00230
3619.10595	-0.00232
3618.14163	-0.00240
3617.17730	-0.00250
3616.21298	-0.00257
3615.24866	-0.00259
3614.28433	-0.00255
3613.32001	-0.00250
3612.35569	-0.00244
3611.39136	-0.00236
3610.42704	-0.00224
3609.46271	-0.00212
3608.49839	-0.00204
3607.53407	-0.00202
3606.56974	-0.00204
3605.60542	-0.00207
3604.64110	-0.00207
3603.67677	-0.00206
3602.71245	-0.00205
3601.74813	-0.00206
3600.78380	-0.00209
3599.81948	-0.00212
3598.85516	-0.00214
3597.89083	-0.00213
3596.92651	-0.00208
3595.96219	-0.00203
3594.99786	-0.00200
3594.03354	-0.00202
3593.06922	-0.00208
3592.10489	-0.00216
3591.14057	-0.00220
3590.17625	-0.00216
3589.21192	-0.00206
3588.24760	-0.00194
3587.28328	-0.00185
3586.31895	-0.00184
3585.35463	-0.00188
3584.39030	-0.00194
3583.42598	-0.00200
3582.46166	-0.00202
3581.49733	-0.00200
3580.53301	-0.00194
3579.56869	-0.00186
3578.60436	-0.00179
3577.64004	-0.00173
3576.67572	-0.00169
3575.71139	-0.00165
3574.74707	-0.00161
3573.78275	-0.00156
3572.81842	-0.00152
3571.85410	-0.00149
3570.88978	-0.00148
3569.92545	-0.00147
3568.96113	-0.00146
3567.99681	-0.00146
3567.03248	-0.00149
3566.06816	-0.00154
3565.10384	-0.00161
3564.13951	-0.00169
3563.17519	-0.00176
3562.21087	-0.00183
3561.24654	-0.00188
3560.28222	-0.00191
3559.31789	-0.00189
3558.35357	-0.00183
3557.38925	-0.00175
3556.42492	-0.00168
3555.46060	-0.00164
3554.49628	-0.00166
3553.53195	-0.00171
3552.56763	-0.00180
3551.60331	-0.00191
3550.63898	-0.00201
3549.67466	-0.00208
3548.71034	-0.00210
3547.74601	-0.00209
3546.78169	-0.00204
3545.81737	-0.00199
3544.85304	-0.00197
3543.88872	-0.00198
3542.92440	-0.00203
3541.96007	-0.00209
3540.99575	-0.00212
3540.03143	-0.00210
3539.06710	-0.00203
3538.10278	-0.00191
3537.13846	-0.00178
3536.17413	-0.00167
3535.20981	-0.00160
3534.24548	-0.00158
3533.28116	-0.00162
3532.31684	-0.00171
3531.35251	-0.00181
3530.38819	-0.00190
3529.42387	-0.00197
3528.45954	-0.00200
3527.49522	-0.00200
3526.53090	-0.00196
3525.56657	-0.00191
3524.60225	-0.00188
3523.63793	-0.00187
3522.67360	-0.00188
3521.70928	-0.00190
3520.74496	-0.00190
3519.78063	-0.00187
3518.81631	-0.00185
3517.85199	-0.00185
3516.88766	-0.00190
3515.92334	-0.00199
3514.95902	-0.00212
3513.99469	-0.00228
3513.03037	-0.00242
3512.06605	-0.00254
3511.10172	-0.00260
3510.13740	-0.00261
3509.17307	-0.00258
3508.20875	-0.00256
3507.24443	-0.00254
3506.28010	-0.00255
3505.31578	-0.00256
3504.35146	-0.00258
3503.38713	-0.00260
3502.42281	-0.00262
3501.45849	-0.00264
3500.49416	-0.00266
3499.52984	-0.00266
3498.56552	-0.00265
3497.60119	-0.00261
3496.63687	-0.00254
3495.67255	-0.00246
3494.70822	-0.00240
3493.74390	-0.00237
3492.77958	-0.00241
3491.81525	-0.00251
3490.85093	-0.00264
3489.88661	-0.00275
3488.92228	-0.00282
3487.95796	-0.00283
3486.99364	-0.00281
3486.02931	-0.00281
3485.06499	-0.00284
3484.10066	-0.00291
3483.13634	-0.00300
3482.17202	-0.00308
3481.20769	-0.00316
3480.24337	-0.00321
3479.27905	-0.00324
3478.31472	-0.00323
3477.35040	-0.00321
3476.38608	-0.00317
3475.42175	-0.00313
3474.45743	-0.00314
3473.49311	-0.00321
3472.52878	-0.00336
3471.56446	-0.00358
3470.60014	-0.00385
3469.63581	-0.00410
3468.67149	-0.00428
3467.70717	-0.00439
3466.74284	-0.00443
3465.77852	-0.00443
3464.81420	-0.00443
3463.84987	-0.00444
3462.88555	-0.00445
3461.92123	-0.00446
3460.95690	-0.00447
3459.99258	-0.00447
3459.02825	-0.00450
3458.06393	-0.00456
3457.09961	-0.00466
3456.13528	-0.00477
3455.17096	-0.00486
3454.20664	-0.00491
3453.24231	-0.00492
3452.27799	-0.00491
3451.31367	-0.00490
3450.34934	-0.00489
3449.38502	-0.00486
3448.42070	-0.00481
3447.45637	-0.00476
3446.49205	-0.00473
3445.52773	-0.00475
3444.56340	-0.00479
3443.59908	-0.00482
3442.63476	-0.00482
3441.67043	-0.00482
3440.70611	-0.00483
3439.74179	-0.00487
3438.77746	-0.00492
3437.81314	-0.00497
3436.84882	-0.00497
3435.88449	-0.00494
3434.92017	-0.00491
3433.95584	-0.00492
3432.99152	-0.00499
3432.02720	-0.00510
3431.06287	-0.00519
3430.09855	-0.00522
3429.13423	-0.00516
3428.16990	-0.00505
3427.20558	-0.00494
3426.24126	-0.00491
3425.27693	-0.00502
3424.31261	-0.00524
3423.34829	-0.00549
3422.38396	-0.00568
3421.41964	-0.00574
3420.45532	-0.00569
3419.49099	-0.00563
3418.52667	-0.00561
3417.56235	-0.00564
3416.59802	-0.00566
3415.63370	-0.00562
3414.66938	-0.00550
3413.70505	-0.00532
3412.74073	-0.00516
3411.77641	-0.00508
3410.81208	-0.00509
3409.84776	-0.00518
3408.88343	-0.00530
3407.91911	-0.00538
3406.95479	-0.00540
3405.99046	-0.00536
3405.02614	-0.00531
3404.06182	-0.00533
3403.09749	-0.00545
3402.13317	-0.00565
3401.16885	-0.00589
3400.20452	-0.00608
3399.24020	-0.00620
3398.27588	-0.00621
3397.31155	-0.00617
3396.34723	-0.00608
3395.38291	-0.00599
3394.41858	-0.00590
3393.45426	-0.00582
3392.48994	-0.00576
3391.52561	-0.00571
3390.56129	-0.00568
3389.59697	-0.00566
3388.63264	-0.00567
3387.66832	-0.00569
3386.70400	-0.00572
3385.73967	-0.00574
3384.77535	-0.00574
3383.81102	-0.00571
3382.84670	-0.00566
3381.88238	-0.00562
3380.91805	-0.00563
3379.95373	-0.00571
3378.98941	-0.00583
3378.02508	-0.00589
3377.06076	-0.00581
3376.09644	-0.00556
3375.13211	-0.00519
3374.16779	-0.00482
3373.20347	-0.00459
3372.23914	-0.00456
3371.27482	-0.00472
3370.31050	-0.00496
3369.34617	-0.00520
3368.38185	-0.00534
3367.41753	-0.00533
3366.45320	-0.00517
3365.48888	-0.00491
3364.52456	-0.00461
3363.56023	-0.00436
3362.59591	-0.00424
3361.63159	-0.00428
3360.66726	-0.00443
3359.70294	-0.00464
3358.73861	-0.00480
3357.77429	-0.00486
3356.80997	-0.00480
3355.84564	-0.00468
3354.88132	-0.00456
3353.91700	-0.00452
3352.95267	-0.00459
3351.98835	-0.00476
3351.02403	-0.00494
3350.05970	-0.00503
3349.09538	-0.00495
3348.13106	-0.00468
3347.16673	-0.00428
3346.20241	-0.00382
3345.23809	-0.00339
3344.27376	-0.00304
3343.30944	-0.00282
3342.34512	-0.00273
3341.38079	-0.00277
3340.41647	-0.00293
3339.45215	-0.00316
3338.48782	-0.00341
3337.52350	-0.00362
3336.55918	-0.00374
3335.59485	-0.00376
3334.63053	-0.00368
3333.66620	-0.00355
3332.70188	-0.00342
3331.73756	-0.00331
3330.77323	-0.00325
3329.80891	-0.00322
3328.84459	-0.00321
3327.88026	-0.00318
3326.91594	-0.00311
3325.95162	-0.00297
3324.98729	-0.00279
3324.02297	-0.00262
3323.05865	-0.00250
3322.09432	-0.00242
3321.13000	-0.00232
3320.16568	-0.00218
3319.20135	-0.00198
3318.23703	-0.00179
3317.27271	-0.00166
3316.30838	-0.00164
3315.34406	-0.00170
3314.37974	-0.00182
3313.41541	-0.00196
3312.45109	-0.00209
3311.48677	-0.00218
3310.52244	-0.00223
3309.55812	-0.00220
3308.59379	-0.00212
3307.62947	-0.00202
3306.66515	-0.00191
3305.70082	-0.00184
3304.73650	-0.00184
3303.77218	-0.00191
3302.80785	-0.00205
3301.84353	-0.00222
3300.87921	-0.00238
3299.91488	-0.00245
3298.95056	-0.00237
3297.98624	-0.00217
3297.02191	-0.00189
3296.05759	-0.00164
3295.09327	-0.00148
3294.12894	-0.00145
3293.16462	-0.00151
3292.20030	-0.00158
3291.23597	-0.00156
3290.27165	-0.00144
3289.30733	-0.00125
3288.34300	-0.00109
3287.37868	-0.00101
3286.41436	-0.00103
3285.45003	-0.00108
3284.48571	-0.00110
3283.52138	-0.00104
3282.55706	-0.00094
3281.59274	-0.00090
3280.62841	-0.00098
3279.66409	-0.00118
3278.69977	-0.00140
3277.73544	-0.00155
3276.77112	-0.00155
3275.80680	-0.00144
3274.84247	-0.00130
3273.87815	-0.00122
3272.91383	-0.00124
3271.94950	-0.00134
3270.98518	-0.00149
3270.02086	-0.00169
3269.05653	-0.00197
3268.09221	-0.00234
3267.12789	-0.00277
3266.16356	-0.00315
3265.19924	-0.00339
3264.23492	-0.00342
3263.27059	-0.00327
3262.30627	-0.00303
3261.34195	-0.00279
3260.37762	-0.00260
3259.41330	-0.00249
3258.44897	-0.00245
3257.48465	-0.00247
3256.52033	-0.00253
3255.55600	-0.00258
3254.59168	-0.00259
3253.62736	-0.00256
3252.66303	-0.00255
3251.69871	-0.00259
3250.73439	-0.00270
3249.77006	-0.00285
3248.80574	-0.00301
3247.84142	-0.00318
3246.87709	-0.00335
3245.91277	-0.00354
3244.94845	-0.00370
3243.98412	-0.00378
3243.01980	-0.00376
3242.05548	-0.00366
3241.09115	-0.00353
3240.12683	-0.00346
3239.16251	-0.00348
3238.19818	-0.00358
3237.23386	-0.00372
3236.26954	-0.00382
3235.30521	-0.00386
3234.34089	-0.00383
3233.37656	-0.00370
3232.41224	-0.00349
3231.44792	-0.00323
3230.48359	-0.00299
3229.51927	-0.00285
3228.55495	-0.00287
3227.59062	-0.00305
3226.62630	-0.00336
3225.66198	-0.00371
3224.69765	-0.00400
3223.73333	-0.00419
3222.76901	-0.00424
3221.80468	-0.00417
3220.84036	-0.00400
3219.87604	-0.00381
3218.91171	-0.00366
3217.94739	-0.00363
3216.98307	-0.00372
3216.01874	-0.00387
3215.05442	-0.00402
3214.09010	-0.00410
3213.12577	-0.00406
3212.16145	-0.00392
3211.19713	-0.00373
3210.23280	-0.00354
3209.26848	-0.00340
3208.30415	-0.00333
3207.33983	-0.00331
3206.37551	-0.00334
3205.41118	-0.00343
3204.44686	-0.00357
3203.48254	-0.00375
3202.51821	-0.00392
3201.55389	-0.00403
3200.58957	-0.00405
3199.62524	-0.00399
3198.66092	-0.00388
3197.69660	-0.00376
3196.73227	-0.00367
3195.76795	-0.00363
3194.80363	-0.00366
3193.83930	-0.00377
3192.87498	-0.00393
3191.91066	-0.00409
3190.94633	-0.00419
3189.98201	-0.00418
3189.01769	-0.00407
3188.05336	-0.00392
3187.08904	-0.00377
3186.12472	-0.00365
3185.16039	-0.00355
3184.19607	-0.00346
3183.23174	-0.00338
3182.26742	-0.00330
3181.30310	-0.00325
3180.33877	-0.00326
3179.37445	-0.00331
3178.41013	-0.00341
3177.44580	-0.00353
3176.48148	-0.00364
3175.51716	-0.00374
3174.55283	-0.00378
3173.58851	-0.00378
3172.62419	-0.00374
3171.65986	-0.00367
3170.69554	-0.00361
3169.73122	-0.00358
3168.76689	-0.00358
3167.80257	-0.00360
3166.83825	-0.00361
3165.87392	-0.00357
3164.90960	-0.00349
3163.94528	-0.00340
3162.98095	-0.00335
3162.01663	-0.00337
3161.05231	-0.00345
3160.08798	-0.00356
3159.12366	-0.00365
3158.15933	-0.00372
3157.19501	-0.00375
3156.23069	-0.00375
3155.26636	-0.00375
3154.30204	-0.00372
3153.33772	-0.00369
3152.37339	-0.00363
3151.40907	-0.00355
3150.44475	-0.00345
3149.48042	-0.00332
3148.51610	-0.00316
3147.55178	-0.00298
3146.58745	-0.00282
3145.62313	-0.00271
3144.65881	-0.00266
3143.69448	-0.00268
3142.73016	-0.00274
3141.76584	-0.00281
3140.80151	-0.00286
3139.83719	-0.00288
3138.87287	-0.00287
3137.90854	-0.00282
3136.94422	-0.00276
3135.97990	-0.00267
3135.01557	-0.00257
3134.05125	-0.00246
3133.08692	-0.00236
3132.12260	-0.00228
3131.15828	-0.00223
3130.19395	-0.00221
3129.22963	-0.00221
3128.26531	-0.00221
3127.30098	-0.00217
3126.33666	-0.00211
3125.37234	-0.00203
3124.40801	-0.00194
3123.44369	-0.00185
3122.47937	-0.00178
3121.51504	-0.00171
3120.55072	-0.00164
3119.58640	-0.00156
3118.62207	-0.00147
3117.65775	-0.00136
3116.69343	-0.00125
3115.72910	-0.00114
3114.76478	-0.00105
3113.80046	-0.00098
3112.83613	-0.00094
3111.87181	-0.00090
3110.90749	-0.00086
3109.94316	-0.00080
3108.97884	-0.00073
3108.01451	-0.00066
3107.05019	-0.00061
3106.08587	-0.00058
3105.12154	-0.00054
3104.15722	-0.00048
3103.19290	-0.00038
3102.22857	-0.00026
3101.26425	-0.00012
3100.29993	0.00002
3099.33560	0.00016
3098.37128	0.00027
3097.40696	0.00036
3096.44263	0.00041
3095.47831	0.00045
3094.51399	0.00048
3093.54966	0.00052
3092.58534	0.00059
3091.62102	0.00067
3090.65669	0.00075
3089.69237	0.00083
3088.72805	0.00090
3087.76372	0.00095
3086.79940	0.00100
3085.83508	0.00106
3084.87075	0.00114
3083.90643	0.00121
3082.94210	0.00128
3081.97778	0.00132
3081.01346	0.00134
3080.04913	0.00134
3079.08481	0.00132
3078.12049	0.00129
3077.15616	0.00127
3076.19184	0.00127
3075.22752	0.00129
3074.26319	0.00133
3073.29887	0.00140
3072.33455	0.00148
3071.37022	0.00155
3070.40590	0.00160
3069.44158	0.00161
3068.47725	0.00159
3067.51293	0.00154
3066.54861	0.00150
3065.58428	0.00148
3064.61996	0.00148
3063.65564	0.00149
3062.69131	0.00151
3061.72699	0.00151
3060.76267	0.00150
3059.79834	0.00147
3058.83402	0.00145
3057.86970	0.00144
3056.90537	0.00145
3055.94105	0.00148
3054.97672	0.00150
3054.01240	0.00152
3053.04808	0.00151
3052.08375	0.00147
3051.11943	0.00142
3050.15511	0.00137
3049.19078	0.00134
3048.22646	0.00131
3047.26214	0.00130
3046.29781	0.00128
3045.33349	0.00127
3044.36917	0.00126
3043.40484	0.00125
3042.44052	0.00124
3041.47620	0.00122
3040.51187	0.00120
3039.54755	0.00116
3038.58323	0.00112
3037.61890	0.00107
3036.65458	0.00104
3035.69026	0.00101
3034.72593	0.00099
3033.76161	0.00099
3032.79729	0.00098
3031.83296	0.00098
3030.86864	0.00097
3029.90431	0.00095
3028.93999	0.00092
3027.97567	0.00089
3027.01134	0.00086
3026.04702	0.00084
3025.08270	0.00082
3024.11837	0.00082
3023.15405	0.00081
3022.18973	0.00082
3021.22540	0.00082
3020.26108	0.00083
3019.29676	0.00084
3018.33243	0.00085
3017.36811	0.00086
3016.40379	0.00086
3015.43946	0.00085
3014.47514	0.00085
3013.51082	0.00085
3012.54649	0.00085
3011.58217	0.00086
3010.61785	0.00088
3009.65352	0.00089
3008.68920	0.00090
3007.72488	0.00092
3006.76055	0.00095
3005.79623	0.00098
3004.83190	0.00101
3003.86758	0.00105
3002.90326	0.00108
3001.93893	0.00111
3000.97461	0.00114
3000.01029	0.00116
2999.04596	0.00118
2998.08164	0.00120
2997.11732	0.00124
2996.15299	0.00128
2995.18867	0.00133
2994.22435	0.00139
2993.26002	0.00144
2992.29570	0.00148
2991.33138	0.00152
2990.36705	0.00156
2989.40273	0.00161
2988.43841	0.00165
2987.47408	0.00170
2986.50976	0.00174
2985.54544	0.00177
2984.58111	0.00180
2983.61679	0.00182
2982.65247	0.00183
2981.68814	0.00184
2980.72382	0.00184
2979.75949	0.00184
2978.79517	0.00186
2977.83085	0.00190
2976.86652	0.00195
2975.90220	0.00200
2974.93788	0.00206
2973.97355	0.00212
2973.00923	0.00218
2972.04491	0.00225
2971.08058	0.00232
2970.11626	0.00240
2969.15194	0.00246
2968.18761	0.00251
2967.22329	0.00255
2966.25897	0.00257
2965.29464	0.00259
2964.33032	0.00262
2963.36600	0.00266
2962.40167	0.00269
2961.43735	0.00272
2960.47303	0.00274
2959.50870	0.00275
2958.54438	0.00276
2957.58006	0.00279
2956.61573	0.00282
2955.65141	0.00285
2954.68708	0.00289
2953.72276	0.00292
2952.75844	0.00295
2951.79411	0.00298
2950.82979	0.00302
2949.86547	0.00305
2948.90114	0.00309
2947.93682	0.00313
2946.97250	0.00318
2946.00817	0.00322
2945.04385	0.00327
2944.07953	0.00332
2943.11520	0.00339
2942.15088	0.00345
2941.18656	0.00350
2940.22223	0.00354
2939.25791	0.00357
2938.29359	0.00360
2937.32926	0.00363
2936.36494	0.00367
2935.40062	0.00371
2934.43629	0.00376
2933.47197	0.00381
2932.50765	0.00385
2931.54332	0.00387
2930.57900	0.00387
2929.61467	0.00386
2928.65035	0.00384
2927.68603	0.00381
2926.72170	0.00378
2925.75738	0.00374
2924.79306	0.00371
2923.82873	0.00366
2922.86441	0.00360
2921.90009	0.00352
2920.93576	0.00342
2919.97144	0.00331
2919.00712	0.00319
2918.04279	0.00307
2917.07847	0.00297
2916.11415	0.00287
2915.14982	0.00278
2914.18550	0.00271
2913.22118	0.00263
2912.25685	0.00255
2911.29253	0.00249
2910.32821	0.00244
2909.36388	0.00240
2908.39956	0.00237
2907.43524	0.00235
2906.47091	0.00233
2905.50659	0.00230
2904.54226	0.00227
2903.57794	0.00223
2902.61362	0.00219
2901.64929	0.00216
2900.68497	0.00212
2899.72065	0.00209
2898.75632	0.00206
2897.79200	0.00204
2896.82768	0.00203
2895.86335	0.00203
2894.89903	0.00203
2893.93471	0.00203
2892.97038	0.00203
2892.00606	0.00201
2891.04174	0.00199
2890.07741	0.00196
2889.11309	0.00192
2888.14877	0.00189
2887.18444	0.00187
2886.22012	0.00186
2885.25580	0.00186
2884.29147	0.00187
2883.32715	0.00187
2882.36283	0.00187
2881.39850	0.00187
2880.43418	0.00188
2879.46985	0.00188
2878.50553	0.00188
2877.54121	0.00188
2876.57688	0.00188
2875.61256	0.00188
2874.64824	0.00187
2873.68391	0.00186
2872.71959	0.00185
2871.75527	0.00183
2870.79094	0.00181
2869.82662	0.00179
2868.86230	0.00178
2867.89797	0.00177
2866.93365	0.00176
2865.96933	0.00176
2865.00500	0.00176
2864.04068	0.00176
2863.07636	0.00178
2862.11203	0.00180
2861.14771	0.00184
2860.18339	0.00188
2859.21906	0.00193
2858.25474	0.00198
2857.29042	0.00203
2856.32609	0.00206
2855.36177	0.00209
2854.39744	0.00209
2853.43312	0.00208
2852.46880	0.00205
2851.50447	0.00199
2850.54015	0.00192
2849.57583	0.00184
2848.61150	0.00176
2847.64718	0.00170
2846.68286	0.00165
2845.71853	0.00160
2844.75421	0.00156
2843.78989	0.00152
2842.82556	0.00149
2841.86124	0.00145
2840.89692	0.00142
2839.93259	0.00139
2838.96827	0.00136
2838.00395	0.00134
2837.03962	0.00132
2836.07530	0.00130
2835.11098	0.00128
2834.14665	0.00126
2833.18233	0.00123
2832.21801	0.00121
2831.25368	0.00119
2830.28936	0.00117
2829.32503	0.00116
2828.36071	0.00115
2827.39639	0.00113
2826.43206	0.00112
2825.46774	0.00111
2824.50342	0.00110
2823.53909	0.00109
2822.57477	0.00109
2821.61045	0.00108
2820.64612	0.00108
2819.68180	0.00108
2818.71748	0.00107
2817.75315	0.00107
2816.78883	0.00106
2815.82451	0.00105
2814.86018	0.00104
2813.89586	0.00103
2812.93154	0.00103
2811.96721	0.00102
2811.00289	0.00101
2810.03857	0.00099
2809.07424	0.00097
2808.10992	0.00095
2807.14560	0.00093
2806.18127	0.00093
2805.21695	0.00093
2804.25262	0.00093
2803.28830	0.00092
2802.32398	0.00091
2801.35965	0.00089
2800.39533	0.00087
2799.43101	0.00085
2798.46668	0.00083
2797.50236	0.00082
2796.53804	0.00082
2795.57371	0.00081
2794.60939	0.00080
2793.64507	0.00079
2792.68074	0.00078
2791.71642	0.00077
2790.75210	0.00076
2789.78777	0.00075
2788.82345	0.00075
2787.85913	0.00074
2786.89480	0.00072
2785.93048	0.00071
2784.96616	0.00070
2784.00183	0.00069
2783.03751	0.00067
2782.07319	0.00066
2781.10886	0.00065
2780.14454	0.00064
2779.18021	0.00063
2778.21589	0.00062
2777.25157	0.00061
2776.28724	0.00060
2775.32292	0.00060
2774.35860	0.00059
2773.39427	0.00058
2772.42995	0.00056
2771.46563	0.00055
2770.50130	0.00055
2769.53698	0.00054
2768.57266	0.00054
2767.60833	0.00054
2766.64401	0.00054
2765.67969	0.00053
2764.71536	0.00051
2763.75104	0.00050
2762.78672	0.00049
2761.82239	0.00048
2760.85807	0.00047
2759.89375	0.00047
2758.92942	0.00046
2757.96510	0.00046
2757.00078	0.00047
2756.03645	0.00048
2755.07213	0.00048
2754.10780	0.00049
2753.14348	0.00048
2752.17916	0.00048
2751.21483	0.00047
2750.25051	0.00046
2749.28619	0.00044
2748.32186	0.00042
2747.35754	0.00041
2746.39322	0.00040
2745.42889	0.00039
2744.46457	0.00039
2743.50025	0.00038
2742.53592	0.00037
2741.57160	0.00036
2740.60728	0.00035
2739.64295	0.00034
2738.67863	0.00034
2737.71431	0.00034
2736.74998	0.00034
2735.78566	0.00034
2734.82134	0.00033
2733.85701	0.00032
2732.89269	0.00032
2731.92837	0.00032
2730.96404	0.00032
2729.99972	0.00032
2729.03539	0.00033
2728.07107	0.00033
2727.10675	0.00032
2726.14242	0.00031
2725.17810	0.00031
2724.21378	0.00030
2723.24945	0.00030
2722.28513	0.00029
2721.32081	0.00028
2720.35648	0.00028
2719.39216	0.00028
2718.42784	0.00029
2717.46351	0.00029
2716.49919	0.00028
2715.53487	0.00027
2714.57054	0.00026
2713.60622	0.00025
2712.64190	0.00024
2711.67757	0.00024
2710.71325	0.00023
2709.74893	0.00023
2708.78460	0.00022
2707.82028	0.00021
2706.85596	0.00021
2705.89163	0.00022
2704.92731	0.00023
2703.96298	0.00024
2702.99866	0.00025
2702.03434	0.00025
2701.07001	0.00025
2700.10569	0.00025
2699.14137	0.00024
2698.17704	0.00024
2697.21272	0.00025
2696.24840	0.00025
2695.28407	0.00025
2694.31975	0.00024
2693.35543	0.00023
2692.39110	0.00022
2691.42678	0.00021
2690.46246	0.00021
2689.49813	0.00021
2688.53381	0.00022
2687.56949	0.00023
2686.60516	0.00023
2685.64084	0.00023
2684.67652	0.00023
2683.71219	0.00022
2682.74787	0.00021
2681.78355	0.00021
2680.81922	0.00020
2679.85490	0.00019
2678.89057	0.00019
2677.92625	0.00017
2676.96193	0.00017
2675.99760	0.00016
2675.03328	0.00016
2674.06896	0.00016
2673.10463	0.00016
2672.14031	0.00017
2671.17599	0.00016
2670.21166	0.00016
2669.24734	0.00015
2668.28302	0.00015
2667.31869	0.00014
2666.35437	0.00013
2665.39005	0.00012
2664.42572	0.00011
2663.46140	0.00011
2662.49708	0.00011
2661.53275	0.00011
2660.56843	0.00011
2659.60411	0.00012
2658.63978	0.00012
2657.67546	0.00012
2656.71114	0.00013
2655.74681	0.00012
2654.78249	0.00011
2653.81816	0.00010
2652.85384	0.00009
2651.88952	0.00007
2650.92519	0.00006
2649.96087	0.00005
2648.99655	0.00006
2648.03222	0.00007
2647.06790	0.00008
2646.10358	0.00009
2645.13925	0.00009
2644.17493	0.00009
2643.21061	0.00008
2642.24628	0.00007
2641.28196	0.00007
2640.31764	0.00006
2639.35331	0.00006
2638.38899	0.00005
2637.42467	0.00005
2636.46034	0.00005
2635.49602	0.00005
2634.53170	0.00004
2633.56737	0.00004
2632.60305	0.00004
2631.63873	0.00004
2630.67440	0.00004
2629.71008	0.00004
2628.74575	0.00005
2627.78143	0.00005
2626.81711	0.00005
2625.85278	0.00005
2624.88846	0.00004
2623.92414	0.00003
2622.95981	0.00003
2621.99549	0.00003
2621.03117	0.00003
2620.06684	0.00004
2619.10252	0.00004
2618.13820	0.00005
2617.17387	0.00005
2616.20955	0.00005
2615.24523	0.00004
2614.28090	0.00004
2613.31658	0.00003
2612.35226	0.00003
2611.38793	0.00002
2610.42361	0.00001
2609.45929	-0.00000
2608.49496	-0.00001
2607.53064	-0.00002
2606.56632	-0.00002
2605.60199	-0.00002
2604.63767	-0.00002
2603.67334	-0.00001
2602.70902	-0.00001
2601.74470	-0.00001
2600.78037	-0.00001
2599.81605	-0.00002
2598.85173	-0.00002
2597.88740	-0.00003
2596.92308	-0.00004
2595.95876	-0.00005
2594.99443	-0.00006
2594.03011	-0.00007
2593.06579	-0.00007
2592.10146	-0.00008
2591.13714	-0.00008
2590.17282	-0.00009
2589.20849	-0.00009
2588.24417	-0.00009
2587.27985	-0.00009
2586.31552	-0.00009
2585.35120	-0.00009
2584.38688	-0.00010
2583.42255	-0.00010
2582.45823	-0.00011
2581.49391	-0.00011
2580.52958	-0.00011
2579.56526	-0.00011
2578.60093	-0.00012
2577.63661	-0.00012
2576.67229	-0.00012
2575.70796	-0.00012
2574.74364	-0.00012
2573.77932	-0.00012
2572.81499	-0.00012
2571.85067	-0.00013
2570.88635	-0.00014
2569.92202	-0.00015
2568.95770	-0.00016
2567.99338	-0.00016
2567.02905	-0.00016
2566.06473	-0.00016
2565.10041	-0.00017
2564.13608	-0.00018
2563.17176	-0.00019
2562.20744	-0.00020
2561.24311	-0.00020
2560.27879	-0.00020
2559.31447	-0.00020
2558.35014	-0.00020
2557.38582	-0.00021
2556.42150	-0.00022
2555.45717	-0.00023
2554.49285	-0.00024
2553.52852	-0.00024
2552.56420	-0.00024
2551.59988	-0.00024
2550.63555	-0.00024
2549.67123	-0.00023
2548.70691	-0.00024
2547.74258	-0.00024
2546.77826	-0.00024
2545.81394	-0.00024
2544.84961	-0.00025
2543.88529	-0.00025
2542.92097	-0.00025
2541.95664	-0.00025
2540.99232	-0.00026
2540.02800	-0.00026
2539.06367	-0.00026
2538.09935	-0.00025
2537.13503	-0.00025
2536.17070	-0.00024
2535.20638	-0.00023
2534.24206	-0.00023
2533.27773	-0.00023
2532.31341	-0.00024
2531.34909	-0.00025
2530.38476	-0.00025
2529.42044	-0.00026
2528.45611	-0.00026
2527.49179	-0.00026
2526.52747	-0.00025
2525.56314	-0.00025
2524.59882	-0.00025
2523.63450	-0.00026
2522.67017	-0.00026
2521.70585	-0.00027
2520.74153	-0.00027
2519.77720	-0.00028
2518.81288	-0.00028
2517.84856	-0.00029
2516.88423	-0.00029
2515.91991	-0.00030
2514.95559	-0.00030
2513.99126	-0.00030
2513.02694	-0.00030
2512.06262	-0.00030
2511.09829	-0.00029
2510.13397	-0.00029
2509.16965	-0.00029
2508.20532	-0.00029
2507.24100	-0.00029
2506.27668	-0.00028
2505.31235	-0.00028
2504.34803	-0.00028
2503.38370	-0.00028
2502.41938	-0.00028
2501.45506	-0.00028
2500.49073	-0.00028
2499.52641	-0.00029
2498.56209	-0.00030
2497.59776	-0.00030
2496.63344	-0.00031
2495.66912	-0.00032
2494.70479	-0.00032
2493.74047	-0.00033
2492.77615	-0.00034
2491.81182	-0.00035
2490.84750	-0.00035
2489.88318	-0.00034
2488.91885	-0.00034
2487.95453	-0.00034
2486.99021	-0.00034
2486.02588	-0.00034
2485.06156	-0.00035
2484.09724	-0.00035
2483.13291	-0.00036
2482.16859	-0.00036
2481.20427	-0.00035
2480.23994	-0.00035
2479.27562	-0.00035
2478.31129	-0.00034
2477.34697	-0.00034
2476.38265	-0.00034
2475.41832	-0.00034
2474.45400	-0.00033
2473.48968	-0.00033
2472.52535	-0.00033
2471.56103	-0.00034
2470.59671	-0.00034
2469.63238	-0.00035
2468.66806	-0.00036
2467.70374	-0.00036
2466.73941	-0.00037
2465.77509	-0.00037
2464.81077	-0.00036
2463.84644	-0.00036
2462.88212	-0.00036
2461.91780	-0.00036
2460.95347	-0.00036
2459.98915	-0.00036
2459.02483	-0.00036
2458.06050	-0.00036
2457.09618	-0.00036
2456.13186	-0.00035
2455.16753	-0.00035
2454.20321	-0.00035
2453.23888	-0.00036
2452.27456	-0.00037
2451.31024	-0.00038
2450.34591	-0.00039
2449.38159	-0.00040
2448.41727	-0.00041
2447.45294	-0.00042
2446.48862	-0.00042
2445.52430	-0.00041
2444.55997	-0.00041
2443.59565	-0.00040
2442.63133	-0.00040
2441.66700	-0.00039
2440.70268	-0.00040
2439.73836	-0.00040
2438.77403	-0.00041
2437.80971	-0.00042
2436.84539	-0.00042
2435.88106	-0.00041
2434.91674	-0.00041
2433.95242	-0.00041
2432.98809	-0.00041
2432.02377	-0.00042
2431.05945	-0.00043
2430.09512	-0.00044
2429.13080	-0.00044
2428.16647	-0.00044
2427.20215	-0.00043
2426.23783	-0.00042
2425.27350	-0.00041
2424.30918	-0.00041
2423.34486	-0.00041
2422.38053	-0.00041
2421.41621	-0.00041
2420.45189	-0.00041
2419.48756	-0.00041
2418.52324	-0.00041
2417.55892	-0.00041
2416.59459	-0.00041
2415.63027	-0.00042
2414.66595	-0.00043
2413.70162	-0.00043
2412.73730	-0.00044
2411.77298	-0.00044
2410.80865	-0.00045
2409.84433	-0.00046
2408.88001	-0.00046
2407.91568	-0.00047
2406.95136	-0.00047
2405.98704	-0.00047
2405.02271	-0.00047
2404.05839	-0.00047
2403.09406	-0.00047
2402.12974	-0.00047
2401.16542	-0.00047
2400.20109	-0.00047
2399.23677	-0.00047
2398.27245	-0.00046
2397.30812	-0.00046
2396.34380	-0.00045
2395.37948	-0.00046
2394.41515	-0.00046
2393.45083	-0.00046
2392.48651	-0.00047
2391.52218	-0.00048
2390.55786	-0.00048
2389.59354	-0.00049
2388.62921	-0.00049
2387.66489	-0.00049
2386.70057	-0.00048
2385.73624	-0.00048
2384.77192	-0.00048
2383.80760	-0.00048
2382.84327	-0.00049
2381.87895	-0.00049
2380.91463	-0.00049
2379.95030	-0.00049
2378.98598	-0.00049
2378.02165	-0.00048
2377.05733	-0.00047
2376.09301	-0.00047
2375.12868	-0.00047
2374.16436	-0.00047
2373.20004	-0.00047
2372.23571	-0.00047
2371.27139	-0.00047
2370.30707	-0.00047
2369.34274	-0.00048
2368.37842	-0.00049
2367.41410	-0.00049
2366.44977	-0.00049
2365.48545	-0.00049
2364.52113	-0.00049
2363.55680	-0.00049
2362.59248	-0.00049
2361.62816	-0.00048
2360.66383	-0.00048
2359.69951	-0.00049
2358.73519	-0.00049
2357.77086	-0.00050
2356.80654	-0.00050
2355.84222	-0.00049
2354.87789	-0.00048
2353.91357	-0.00047
2352.94924	-0.00046
2351.98492	-0.00046
2351.02060	-0.00045
2350.05627	-0.00045
2349.09195	-0.00044
2348.12763	-0.00044
2347.16330	-0.00045
2346.19898	-0.00046
2345.23466	-0.00046
2344.27033	-0.00046
2343.30601	-0.00047
2342.34169	-0.00047
2341.37736	-0.00048
2340.41304	-0.00048
2339.44872	-0.00048
2338.48439	-0.00048
2337.52007	-0.00048
2336.55575	-0.00048
2335.59142	-0.00048
2334.62710	-0.00048
2333.66278	-0.00048
2332.69845	-0.00049
2331.73413	-0.00049
2330.76981	-0.00048
2329.80548	-0.00048
2328.84116	-0.00047
2327.87683	-0.00048
2326.91251	-0.00048
2325.94819	-0.00047
2324.98386	-0.00048
2324.01954	-0.00048
2323.05522	-0.00048
2322.09089	-0.00047
2321.12657	-0.00048
2320.16225	-0.00048
2319.19792	-0.00048
2318.23360	-0.00048
2317.26928	-0.00047
2316.30495	-0.00047
2315.34063	-0.00047
2314.37631	-0.00047
2313.41198	-0.00047
2312.44766	-0.00048
2311.48334	-0.00048
2310.51901	-0.00048
2309.55469	-0.00048
2308.59037	-0.00048
2307.62604	-0.00048
2306.66172	-0.00047
2305.69740	-0.00047
2304.73307	-0.00047
2303.76875	-0.00047
2302.80443	-0.00048
2301.84010	-0.00048
2300.87578	-0.00048
2299.91145	-0.00048
2298.94713	-0.00048
2297.98281	-0.00049
2297.01848	-0.00049
2296.05416	-0.00050
2295.08984	-0.00050
2294.12551	-0.00050
2293.16119	-0.00050
2292.19687	-0.00050
2291.23254	-0.00049
2290.26822	-0.00049
2289.30390	-0.00049
2288.33957	-0.00050
2287.37525	-0.00050
2286.41093	-0.00050
2285.44660	-0.00049
2284.48228	-0.00049
2283.51796	-0.00049
2282.55363	-0.00049
2281.58931	-0.00049
2280.62499	-0.00049
2279.66066	-0.00049
2278.69634	-0.00050
2277.73202	-0.00050
2276.76769	-0.00050
2275.80337	-0.00050
2274.83904	-0.00050
2273.87472	-0.00050
2272.91040	-0.00050
2271.94607	-0.00050
2270.98175	-0.00051
2270.01743	-0.00051
2269.05310	-0.00051
2268.08878	-0.00051
2267.12446	-0.00050
2266.16013	-0.00050
2265.19581	-0.00050
2264.23149	-0.00049
2263.26716	-0.00048
2262.30284	-0.00048
2261.33852	-0.00047
2260.37419	-0.00047
2259.40987	-0.00047
2258.44555	-0.00047
2257.48122	-0.00047
2256.51690	-0.00047
2255.55258	-0.00047
2254.58825	-0.00048
2253.62393	-0.00048
2252.65961	-0.00049
2251.69528	-0.00049
2250.73096	-0.00049
2249.76663	-0.00049
2248.80231	-0.00049
2247.83799	-0.00050
2246.87366	-0.00050
2245.90934	-0.00050
2244.94502	-0.00049
2243.98069	-0.00049
2243.01637	-0.00048
2242.05205	-0.00048
2241.08772	-0.00047
2240.12340	-0.00047
2239.15908	-0.00046
2238.19475	-0.00047
2237.23043	-0.00047
2236.26611	-0.00047
2235.30178	-0.00048
2234.33746	-0.00048
2233.37314	-0.00048
2232.40881	-0.00048
2231.44449	-0.00049
2230.48017	-0.00049
2229.51584	-0.00050
2228.55152	-0.00051
2227.58720	-0.00051
2226.62287	-0.00051
2225.65855	-0.00051
2224.69422	-0.00050
2223.72990	-0.00049
2222.76558	-0.00048
2221.80125	-0.00048
2220.83693	-0.00047
2219.87261	-0.00048
2218.90828	-0.00048
2217.94396	-0.00049
2216.97964	-0.00050
2216.01531	-0.00051
2215.05099	-0.00051
2214.08667	-0.00051
2213.12234	-0.00051
2212.15802	-0.00051
2211.19370	-0.00051
2210.22937	-0.00051
2209.26505	-0.00051
2208.30073	-0.00050
2207.33640	-0.00050
2206.37208	-0.00050
2205.40776	-0.00050
2204.44343	-0.00050
2203.47911	-0.00050
2202.51479	-0.00050
2201.55046	-0.00050
2200.58614	-0.00050
2199.62181	-0.00049
2198.65749	-0.00049
2197.69317	-0.00049
2196.72884	-0.00049
2195.76452	-0.00049
2194.80020	-0.00050
2193.83587	-0.00050
2192.87155	-0.00051
2191.90723	-0.00051
2190.94290	-0.00051
2189.97858	-0.00051
2189.01426	-0.00051
2188.04993	-0.00051
2187.08561	-0.00050
2186.12129	-0.00050
2185.15696	-0.00050
2184.19264	-0.00050
2183.22832	-0.00050
2182.26399	-0.00050
2181.29967	-0.00051
2180.33535	-0.00051
2179.37102	-0.00051
2178.40670	-0.00051
2177.44238	-0.00051
2176.47805	-0.00051
2175.51373	-0.00050
2174.54940	-0.00050
2173.58508	-0.00050
2172.62076	-0.00050
2171.65643	-0.00050
2170.69211	-0.00050
2169.72779	-0.00051
2168.76346	-0.00052
2167.79914	-0.00052
2166.83482	-0.00052
2165.87049	-0.00052
2164.90617	-0.00052
2163.94185	-0.00051
2162.97752	-0.00050
2162.01320	-0.00050
2161.04888	-0.00049
2160.08455	-0.00049
2159.12023	-0.00049
2158.15591	-0.00049
2157.19158	-0.00050
2156.22726	-0.00051
2155.26294	-0.00052
2154.29861	-0.00052
2153.33429	-0.00052
2152.36997	-0.00052
2151.40564	-0.00052
2150.44132	-0.00052
2149.47699	-0.00052
2148.51267	-0.00053
2147.54835	-0.00053
2146.58402	-0.00052
2145.61970	-0.00052
2144.65538	-0.00051
2143.69105	-0.00051
2142.72673	-0.00050
2141.76241	-0.00050
2140.79808	-0.00050
2139.83376	-0.00050
2138.86944	-0.00050
2137.90511	-0.00050
2136.94079	-0.00050
2135.97647	-0.00050
2135.01214	-0.00050
2134.04782	-0.00050
2133.08350	-0.00050
2132.11917	-0.00049
2131.15485	-0.00049
2130.19053	-0.00049
2129.22620	-0.00050
2128.26188	-0.00050
2127.29756	-0.00051
2126.33323	-0.00051
2125.36891	-0.00051
2124.40458	-0.00051
2123.44026	-0.00051
2122.47594	-0.00050
2121.51161	-0.00050
2120.54729	-0.00050
2119.58297	-0.00050
2118.61864	-0.00049
2117.65432	-0.00049
2116.69000	-0.00049
2115.72567	-0.00049
2114.76135	-0.00049
2113.79703	-0.00049
2112.83270	-0.00049
2111.86838	-0.00049
2110.90406	-0.00049
2109.93973	-0.00049
2108.97541	-0.00048
2108.01109	-0.00049
2107.04676	-0.00049
2106.08244	-0.00049
2105.11812	-0.00048
2104.15379	-0.00048
2103.18947	-0.00048
2102.22515	-0.00048
2101.26082	-0.00048
2100.29650	-0.00048
2099.33217	-0.00048
2098.36785	-0.00048
2097.40353	-0.00048
2096.43920	-0.00048
2095.47488	-0.00048
2094.51056	-0.00048
2093.54623	-0.00049
2092.58191	-0.00049
2091.61759	-0.00049
2090.65326	-0.00049
2089.68894	-0.00049
2088.72462	-0.00049
2087.76029	-0.00049
2086.79597	-0.00049
2085.83165	-0.00049
2084.86732	-0.00049
2083.90300	-0.00049
2082.93868	-0.00049
2081.97435	-0.00049
2081.01003	-0.00050
2080.04571	-0.00050
2079.08138	-0.00051
2078.11706	-0.00051
2077.15274	-0.00051
2076.18841	-0.00051
2075.22409	-0.00050
2074.25976	-0.00050
2073.29544	-0.00049
2072.33112	-0.00049
2071.36679	-0.00049
2070.40247	-0.00049
2069.43815	-0.00050
2068.47382	-0.00050
2067.50950	-0.00050
2066.54518	-0.00049
2065.58085	-0.00049
2064.61653	-0.00049
2063.65221	-0.00049
2062.68788	-0.00050
2061.72356	-0.00050
2060.75924	-0.00050
2059.79491	-0.00049
2058.83059	-0.00049
2057.86627	-0.00049
2056.90194	-0.00049
2055.93762	-0.00049
2054.97330	-0.00050
2054.00897	-0.00050
2053.04465	-0.00050
2052.08033	-0.00049
2051.11600	-0.00049
2050.15168	-0.00049
2049.18735	-0.00048
2048.22303	-0.00048
2047.25871	-0.00048
2046.29438	-0.00048
2045.33006	-0.00048
2044.36574	-0.00048
2043.40141	-0.00048
2042.43709	-0.00048
2041.47277	-0.00048
2040.50844	-0.00048
2039.54412	-0.00049
2038.57980	-0.00049
2037.61547	-0.00049
2036.65115	-0.00049
2035.68683	-0.00049
2034.72250	-0.00048
2033.75818	-0.00048
2032.79386	-0.00048
2031.82953	-0.00048
2030.86521	-0.00048
2029.90089	-0.00048
2028.93656	-0.00048
2027.97224	-0.00047
2027.00792	-0.00047
2026.04359	-0.00046
2025.07927	-0.00046
2024.11494	-0.00045
2023.15062	-0.00045
2022.18630	-0.00045
2021.22197	-0.00045
2020.25765	-0.00046
2019.29333	-0.00046
2018.32900	-0.00046
2017.36468	-0.00046
2016.40036	-0.00046
2015.43603	-0.00046
2014.47171	-0.00045
2013.50739	-0.00045
2012.54306	-0.00045
2011.57874	-0.00044
2010.61442	-0.00044
2009.65009	-0.00045
2008.68577	-0.00045
2007.72145	-0.00045
2006.75712	-0.00045
2005.79280	-0.00045
2004.82848	-0.00045
2003.86415	-0.00045
2002.89983	-0.00045
2001.93551	-0.00045
2000.97118	-0.00044
2000.00686	-0.00044
1999.04253	-0.00044
1998.07821	-0.00044
1997.11389	-0.00044
1996.14956	-0.00044
1995.18524	-0.00044
1994.22092	-0.00044
1993.25659	-0.00043
1992.29227	-0.00042
1991.32795	-0.00042
1990.36362	-0.00043
1989.39930	-0.00044
1988.43498	-0.00044
1987.47065	-0.00044
1986.50633	-0.00044
1985.54201	-0.00044
1984.57768	-0.00043
1983.61336	-0.00043
1982.64904	-0.00042
1981.68471	-0.00042
1980.72039	-0.00042
1979.75607	-0.00043
1978.79174	-0.00043
1977.82742	-0.00043
1976.86310	-0.00043
1975.89877	-0.00043
1974.93445	-0.00043
1973.97012	-0.00043
1973.00580	-0.00043
1972.04148	-0.00043
1971.07715	-0.00043
1970.11283	-0.00043
1969.14851	-0.00043
1968.18418	-0.00042
1967.21986	-0.00041
1966.25554	-0.00041
1965.29121	-0.00041
1964.32689	-0.00041
1963.36257	-0.00040
1962.39824	-0.00040
1961.43392	-0.00039
1960.46960	-0.00039
1959.50527	-0.00039
1958.54095	-0.00039
1957.57663	-0.00039
1956.61230	-0.00040
1955.64798	-0.00041
1954.68366	-0.00041
1953.71933	-0.00041
1952.75501	-0.00041
1951.79069	-0.00041
1950.82636	-0.00040
1949.86204	-0.00040
1948.89771	-0.00039
1947.93339	-0.00040
1946.96907	-0.00040
1946.00474	-0.00040
1945.04042	-0.00040
1944.07610	-0.00039
1943.11177	-0.00038
1942.14745	-0.00037
1941.18313	-0.00038
1940.21880	-0.00038
1939.25448	-0.00038
1938.29016	-0.00038
1937.32583	-0.00038
1936.36151	-0.00039
1935.39719	-0.00039
1934.43286	-0.00039
1933.46854	-0.00039
1932.50422	-0.00040
1931.53989	-0.00040
1930.57557	-0.00040
1929.61125	-0.00039
1928.64692	-0.00039
1927.68260	-0.00039
1926.71828	-0.00039
1925.75395	-0.00039
1924.78963	-0.00038
1923.82530	-0.00037
1922.86098	-0.00037
1921.89666	-0.00037
1920.93233	-0.00038
1919.96801	-0.00037
1919.00369	-0.00035
1918.03936	-0.00034
1917.07504	-0.00034
1916.11072	-0.00036
1915.14639	-0.00038
1914.18207	-0.00039
1913.21775	-0.00039
1912.25342	-0.00038
1911.28910	-0.00038
1910.32478	-0.00037
1909.36045	-0.00037
1908.39613	-0.00036
1907.43181	-0.00036
1906.46748	-0.00036
1905.50316	-0.00035
1904.53884	-0.00035
1903.57451	-0.00035
1902.61019	-0.00035
1901.64587	-0.00035
1900.68154	-0.00035
1899.71722	-0.00035
1898.75289	-0.00035
1897.78857	-0.00035
1896.82425	-0.00034
1895.85992	-0.00034
1894.89560	-0.00034
1893.93128	-0.00034
1892.96695	-0.00034
1892.00263	-0.00034
1891.03831	-0.00033
1890.07398	-0.00032
1889.10966	-0.00032
1888.14534	-0.00033
1887.18101	-0.00034
1886.21669	-0.00034
1885.25237	-0.00033
1884.28804	-0.00032
1883.32372	-0.00032
1882.35940	-0.00033
1881.39507	-0.00034
1880.43075	-0.00035
1879.46643	-0.00035
1878.50210	-0.00035
1877.53778	-0.00035
1876.57346	-0.00034
1875.60913	-0.00033
1874.64481	-0.00033
1873.68048	-0.00034
1872.71616	-0.00034
1871.75184	-0.00033
1870.78751	-0.00031
1869.82319	-0.00029
1868.85887	-0.00029
1867.89454	-0.00031
1866.93022	-0.00033
1865.96590	-0.00035
1865.00157	-0.00036
1864.03725	-0.00035
1863.07293	-0.00035
1862.10860	-0.00034
1861.14428	-0.00034
1860.17996	-0.00034
1859.21563	-0.00034
1858.25131	-0.00033
1857.28699	-0.00033
1856.32266	-0.00033
1855.35834	-0.00033
1854.39402	-0.00032
1853.42969	-0.00032
1852.46537	-0.00032
1851.50105	-0.00031
1850.53672	-0.00031
1849.57240	-0.00032
1848.60807	-0.00033
1847.64375	-0.00034
1846.67943	-0.00033
1845.71510	-0.00029
1844.75078	-0.00025
1843.78646	-0.00024
1842.82213	-0.00027
1841.85781	-0.00031
1840.89349	-0.00034
1839.92916	-0.00034
1838.96484	-0.00033
1838.00052	-0.00032
1837.03619	-0.00032
1836.07187	-0.00033
1835.10755	-0.00034
1834.14322	-0.00035
1833.17890	-0.00034
1832.21458	-0.00032
1831.25025	-0.00029
1830.28593	-0.00027
1829.32161	-0.00027
1828.35728	-0.00029
1827.39296	-0.00030
1826.42864	-0.00030
1825.46431	-0.00028
1824.49999	-0.00028
1823.53566	-0.00029
1822.57134	-0.00031
1821.60702	-0.00032
1820.64269	-0.00032
1819.67837	-0.00030
1818.71405	-0.00028
1817.74972	-0.00027
1816.78540	-0.00027
1815.82108	-0.00027
1814.85675	-0.00028
1813.89243	-0.00029
1812.92811	-0.00029
1811.96378	-0.00028
1810.99946	-0.00027
1810.03514	-0.00027
1809.07081	-0.00028
1808.10649	-0.00028
1807.14217	-0.00029
1806.17784	-0.00029
1805.21352	-0.00029
1804.24920	-0.00029
1803.28487	-0.00028
1802.32055	-0.00026
1801.35623	-0.00024
1800.39190	-0.00024
1799.42758	-0.00025
1798.46325	-0.00027
1797.49893	-0.00029
1796.53461	-0.00031
1795.57028	-0.00031
1794.60596	-0.00028
1793.64164	-0.00024
1792.67731	-0.00021
1791.71299	-0.00021
1790.74867	-0.00024
1789.78434	-0.00027
1788.82002	-0.00029
1787.85570	-0.00028
1786.89137	-0.00025
1785.92705	-0.00023
1784.96273	-0.00022
1783.99840	-0.00024
1783.03408	-0.00026
1782.06976	-0.00027
1781.10543	-0.00026
1780.14111	-0.00025
1779.17679	-0.00024
1778.21246	-0.00025
1777.24814	-0.00027
1776.28382	-0.00027
1775.31949	-0.00025
1774.35517	-0.00021
1773.39084	-0.00016
1772.42652	-0.00015
1771.46220	-0.00018
1770.49787	-0.00022
1769.53355	-0.00023
1768.56923	-0.00022
1767.60490	-0.00021
1766.64058	-0.00023
1765.67626	-0.00025
1764.71193	-0.00025
1763.74761	-0.00022
1762.78329	-0.00016
1761.81896	-0.00013
1760.85464	-0.00013
1759.89032	-0.00014
1758.92599	-0.00013
1757.96167	-0.00008
1756.99735	-0.00005
1756.03302	-0.00004
1755.06870	-0.00005
1754.10438	-0.00005
1753.14005	0.00001
1752.17573	0.00009
1751.21141	0.00015
1750.24708	0.00017
1749.28276	0.00016
1748.31843	0.00015
1747.35411	0.00015
1746.38979	0.00016
1745.42546	0.00016
1744.46114	0.00016
1743.49682	0.00016
1742.53249	0.00016
1741.56817	0.00018
1740.60385	0.00018
1739.63952	0.00015
1738.67520	0.00007
1737.71088	-0.00000
1736.74655	-0.00001
1735.78223	0.00006
1734.81791	0.00015
1733.85358	0.00016
1732.88926	0.00008
1731.92494	-0.00005
1730.96061	-0.00014
1729.99629	-0.00017
1729.03197	-0.00016
1728.06764	-0.00015
1727.10332	-0.00015
1726.13900	-0.00015
1725.17467	-0.00015
1724.21035	-0.00015
1723.24602	-0.00016
1722.28170	-0.00018
1721.31738	-0.00019
1720.35305	-0.00015
1719.38873	-0.00006
1718.42441	0.00004
1717.46008	0.00009
1716.49576	0.00008
1715.53144	0.00004
1714.56711	0.00001
1713.60279	0.00002
1712.63847	0.00007
1711.67414	0.00013
1710.70982	0.00020
1709.74550	0.00027
1708.78117	0.00036
1707.81685	0.00046
1706.85253	0.00059
1705.88820	0.00070
1704.92388	0.00081
1703.95956	0.00093
1702.99523	0.00113
1702.03091	0.00142
1701.06659	0.00172
1700.10226	0.00193
1699.13794	0.00206
1698.17361	0.00220
1697.20929	0.00243
1696.24497	0.00273
1695.28064	0.00299
1694.31632	0.00317
1693.35200	0.00335
1692.38767	0.00358
1691.42335	0.00388
1690.45903	0.00419
1689.49470	0.00447
1688.53038	0.00474
1687.56606	0.00505
1686.60173	0.00544
1685.63741	0.00588
1684.67309	0.00627
1683.70876	0.00655
1682.74444	0.00674
1681.78012	0.00694
1680.81579	0.00719
1679.85147	0.00749
1678.88715	0.00782
1677.92282	0.00815
1676.95850	0.00850
1675.99418	0.00884
1675.02985	0.00914
1674.06553	0.00940
1673.10120	0.00965
1672.13688	0.00995
1671.17256	0.01030
1670.20823	0.01066
1669.24391	0.01099
1668.27959	0.01126
1667.31526	0.01148
1666.35094	0.01171
1665.38662	0.01199
1664.42229	0.01230
1663.45797	0.01261
1662.49365	0.01291
1661.52932	0.01317
1660.56500	0.01341
1659.60068	0.01362
1658.63635	0.01380
1657.67203	0.01395
1656.70771	0.01412
1655.74338	0.01435
1654.77906	0.01466
1653.81474	0.01494
1652.85041	0.01507
1651.88609	0.01500
1650.92177	0.01485
1649.95744	0.01473
1648.99312	0.01473
1648.02879	0.01481
1647.06447	0.01486
1646.10015	0.01483
1645.13582	0.01471
1644.17150	0.01454
1643.20718	0.01438
1642.24285	0.01425
1641.27853	0.01411
1640.31421	0.01397
1639.34988	0.01380
1638.38556	0.01366
1637.42124	0.01354
1636.45691	0.01341
1635.49259	0.01321
1634.52827	0.01293
1633.56394	0.01261
1632.59962	0.01231
1631.63530	0.01206
1630.67097	0.01185
1629.70665	0.01165
1628.74233	0.01143
1627.77800	0.01118
1626.81368	0.01091
1625.84936	0.01064
1624.88503	0.01039
1623.92071	0.01013
1622.95638	0.00984
1621.99206	0.00951
1621.02774	0.00915
1620.06341	0.00883
1619.09909	0.00857
1618.13477	0.00835
1617.17044	0.00811
1616.20612	0.00781
1615.24180	0.00745
1614.27747	0.00709
1613.31315	0.00679
1612.34883	0.00655
1611.38450	0.00633
1610.42018	0.00611
1609.45586	0.00589
1608.49153	0.00567
1607.52721	0.00548
1606.56289	0.00531
1605.59856	0.00517
1604.63424	0.00505
1603.66992	0.00495
1602.70559	0.00487
1601.74127	0.00480
1600.77695	0.00473
1599.81262	0.00467
1598.84830	0.00463
1597.88397	0.00459
1596.91965	0.00456
1595.95533	0.00455
1594.99100	0.00454
1594.02668	0.00454
1593.06236	0.00455
1592.09803	0.00458
1591.13371	0.00462
1590.16939	0.00467
1589.20506	0.00474
1588.24074	0.00483
1587.27642	0.00493
1586.31209	0.00505
1585.34777	0.00517
1584.38345	0.00532
1583.41912	0.00547
1582.45480	0.00562
1581.49048	0.00577
1580.52615	0.00592
1579.56183	0.00611
1578.59751	0.00636
1577.63318	0.00667
1576.66886	0.00699
1575.70454	0.00723
1574.74021	0.00740
1573.77589	0.00755
1572.81156	0.00776
1571.84724	0.00805
1570.88292	0.00839
1569.91859	0.00871
1568.95427	0.00898
1567.98995	0.00922
1567.02562	0.00947
1566.06130	0.00972
1565.09698	0.00997
1564.13265	0.01020
1563.16833	0.01042
1562.20401	0.01070
1561.23968	0.01105
1560.27536	0.01143
1559.31104	0.01173
1558.34671	0.01190
1557.38239	0.01198
1556.41807	0.01206
1555.45374	0.01220
1554.48942	0.01238
1553.52510	0.01254
1552.56077	0.01266
1551.59645	0.01275
1550.63213	0.01283
1549.66780	0.01288
1548.70348	0.01291
1547.73915	0.01292
1546.77483	0.01291
1545.81051	0.01289
1544.84618	0.01285
1543.88186	0.01278
1542.91754	0.01273
1541.95321	0.01269
1540.98889	0.01267
1540.02457	0.01259
1539.06024	0.01242
1538.09592	0.01217
1537.13160	0.01191
1536.16727	0.01171
1535.20295	0.01158
1534.23863	0.01147
1533.27430	0.01132
1532.30998	0.01110
1531.34566	0.01085
1530.38133	0.01061
1529.41701	0.01040
1528.45269	0.01022
1527.48836	0.01002
1526.52404	0.00982
1525.55972	0.00959
1524.59539	0.00939
1523.63107	0.00924
1522.66675	0.00914
1521.70242	0.00904
1520.73810	0.00891
1519.77377	0.00873
1518.80945	0.00854
1517.84513	0.00834
1516.88080	0.00811
1515.91648	0.00782
1514.95216	0.00747
1513.98783	0.00708
1513.02351	0.00669
1512.05919	0.00629
1511.09486	0.00591
1510.13054	0.00557
1509.16622	0.00531
1508.20189	0.00512
1507.23757	0.00495
1506.27325	0.00472
1505.30892	0.00442
1504.34460	0.00409
1503.38028	0.00380
1502.41595	0.00361
1501.45163	0.00347
1500.48731	0.00336
1499.52298	0.00326
1498.55866	0.00316
1497.59434	0.00307
1496.63001	0.00296
1495.66569	0.00281
1494.70136	0.00265
1493.73704	0.00250
1492.77272	0.00240
1491.80839	0.00235
1490.84407	0.00231
1489.87975	0.00226
1488.91542	0.00219
1487.95110	0.00212
1486.98678	0.00205
1486.02245	0.00199
1485.05813	0.00195
1484.09381	0.00192
1483.12948	0.00190
1482.16516	0.00189
1481.20084	0.00187
1480.23651	0.00186
1479.27219	0.00186
1478.30787	0.00186
1477.34354	0.00188
1476.37922	0.00191
1475.41490	0.00196
1474.45057	0.00204
1473.48625	0.00212
1472.52193	0.00217
1471.55760	0.00219
1470.59328	0.00219
1469.62895	0.00219
1468.66463	0.00223
1467.70031	0.00231
1466.73598	0.00241
1465.77166	0.00252
1464.80734	0.00259
1463.84301	0.00263
1462.87869	0.00265
1461.91437	0.00267
1460.95004	0.00273
1459.98572	0.00283
1459.02140	0.00298
1458.05707	0.00314
1457.09275	0.00322
1456.12843	0.00321
1455.16410	0.00311
1454.19978	0.00300
1453.23546	0.00294
1452.27113	0.00290
1451.30681	0.00288
1450.34249	0.00285
1449.37816	0.00282
1448.41384	0.00278
1447.44952	0.00273
1446.48519	0.00266
1445.52087	0.00258
1444.55654	0.00252
1443.59222	0.00246
1442.62790	0.00240
1441.66357	0.00234
1440.69925	0.00229
1439.73493	0.00226
1438.77060	0.00226
1437.80628	0.00228
1436.84196	0.00227
1435.87763	0.00222
1434.91331	0.00214
1433.94899	0.00207
1432.98466	0.00205
1432.02034	0.00208
1431.05602	0.00212
1430.09169	0.00216
1429.12737	0.00219
1428.16305	0.00221
1427.19872	0.00225
1426.23440	0.00230
1425.27008	0.00235
1424.30575	0.00240
1423.34143	0.00244
1422.37711	0.00250
1421.41278	0.00258
1420.44846	0.00268
1419.48413	0.00276
1418.51981	0.00279
1417.55549	0.00277
1416.59116	0.00274
1415.62684	0.00273
1414.66252	0.00273
1413.69819	0.00273
1412.73387	0.00272
1411.76955	0.00270
1410.80522	0.00267
1409.84090	0.00264
1408.87658	0.00261
1407.91225	0.00258
1406.94793	0.00257
1405.98361	0.00256
1405.01928	0.00255
1404.05496	0.00254
1403.09064	0.00252
1402.12631	0.00252
1401.16199	0.00255
1400.19767	0.00258
1399.23334	0.00261
1398.26902	0.00263
1397.30470	0.00266
1396.34037	0.00269
1395.37605	0.00273
1394.41172	0.00276
1393.44740	0.00276
1392.48308	0.00274
1391.51875	0.00273
1390.55443	0.00273
1389.59011	0.00276
1388.62578	0.00279
1387.66146	0.00281
1386.69714	0.00279
1385.73281	0.00276
1384.76849	0.00272
1383.80417	0.00269
1382.83984	0.00267
1381.87552	0.00265
1380.91120	0.00262
1379.94687	0.00258
1378.98255	0.00254
1378.01823	0.00249
1377.05390	0.00244
1376.08958	0.00240
1375.12526	0.00235
1374.16093	0.00229
1373.19661	0.00223
1372.23229	0.00216
1371.26796	0.00210
1370.30364	0.00205
1369.33931	0.00201
1368.37499	0.00197
1367.41067	0.00193
1366.44634	0.00189
1365.48202	0.00186
1364.51770	0.00184
1363.55337	0.00183
1362.58905	0.00180
1361.62473	0.00177
1360.66040	0.00174
1359.69608	0.00171
1358.73176	0.00170
1357.76743	0.00169
1356.80311	0.00170
1355.83879	0.00170
1354.87446	0.00171
1353.91014	0.00171
1352.94582	0.00173
1351.98149	0.00174
1351.01717	0.00177
1350.05285	0.00180
1349.08852	0.00183
1348.12420	0.00187
1347.15988	0.00191
1346.19555	0.00196
1345.23123	0.00201
1344.26690	0.00205
1343.30258	0.00209
1342.33826	0.00213
1341.37393	0.00217
1340.40961	0.00220
1339.44529	0.00222
1338.48096	0.00223
1337.51664	0.00222
1336.55232	0.00221
1335.58799	0.00220
1334.62367	0.00218
1333.65935	0.00215
1332.69502	0.00212
1331.73070	0.00209
1330.76638	0.00206
1329.80205	0.00202
1328.83773	0.00199
1327.87341	0.00197
1326.90908	0.00194
1325.94476	0.00192
1324.98044	0.00190
1324.01611	0.00189
1323.05179	0.00188
1322.08747	0.00187
1321.12314	0.00187
1320.15882	0.00188
1319.19449	0.00188
1318.23017	0.00189
1317.26585	0.00190
1316.30152	0.00192
1315.33720	0.00194
1314.37288	0.00196
1313.40855	0.00198
1312.44423	0.00199
1311.47991	0.00201
1310.51558	0.00203
1309.55126	0.00204
1308.58694	0.00206
1307.62261	0.00207
1306.65829	0.00209
1305.69397	0.00210
1304.72964	0.00212
1303.76532	0.00213
1302.80100	0.00214
1301.83667	0.00216
1300.87235	0.00217
1299.90803	0.00218
1298.94370	0.00219
1297.97938	0.00221
1297.01506	0.00223
1296.05073	0.00224
1295.08641	0.00226
1294.12208	0.00228
1293.15776	0.00229
1292.19344	0.00230
1291.22911	0.00231
1290.26479	0.00232
1289.30047	0.00233
1288.33614	0.00234
1287.37182	0.00236
1286.40750	0.00237
1285.44317	0.00238
1284.47885	0.00240
1283.51453	0.00242
1282.55020	0.00244
1281.58588	0.00246
1280.62156	0.00249
1279.65723	0.00253
1278.69291	0.00256
1277.72859	0.00259
1276.76426	0.00263
1275.79994	0.00266
1274.83562	0.00269
1273.87129	0.00273
1272.90697	0.00277
1271.94265	0.00280
1270.97832	0.00284
1270.01400	0.00288
1269.04967	0.00291
1268.08535	0.00295
1267.12103	0.00300
1266.15670	0.00304
1265.19238	0.00308
1264.22806	0.00313
1263.26373	0.00317
1262.29941	0.00322
1261.33509	0.00326
1260.37076	0.00331
1259.40644	0.00336
1258.44212	0.00341
1257.47779	0.00346
1256.51347	0.00351
1255.54915	0.00356
1254.58482	0.00360
1253.62050	0.00363
1252.65618	0.00366
1251.69185	0.00368
1250.72753	0.00370
1249.76321	0.00371
1248.79888	0.00372
1247.83456	0.00372
1246.87024	0.00371
1245.90591	0.00370
1244.94159	0.00368
1243.97726	0.00364
1243.01294	0.00360
1242.04862	0.00356
1241.08429	0.00350
1240.11997	0.00344
1239.15565	0.00337
1238.19132	0.00330
1237.22700	0.00322
1236.26268	0.00313
1235.29835	0.00304
1234.33403	0.00295
1233.36971	0.00285
1232.40538	0.00276
1231.44106	0.00266
1230.47674	0.00257
1229.51241	0.00248
1228.54809	0.00239
1227.58377	0.00231
1226.61944	0.00222
1225.65512	0.00214
1224.69080	0.00206
1223.72647	0.00199
1222.76215	0.00192
1221.79783	0.00186
1220.83350	0.00181
1219.86918	0.00176
1218.90485	0.00170
1217.94053	0.00166
1216.97621	0.00161
1216.01188	0.00158
1215.04756	0.00155
1214.08324	0.00152
1213.11891	0.00150
1212.15459	0.00148
1211.19027	0.00147
1210.22594	0.00145
1209.26162	0.00144
1208.29730	0.00143
1207.33297	0.00141
1206.36865	0.00140
1205.40433	0.00138
1204.44000	0.00135
1203.47568	0.00133
1202.51136	0.00130
1201.54703	0.00128
1200.58271	0.00126
1199.61839	0.00124
1198.65406	0.00122
1197.68974	0.00121
1196.72542	0.00120
1195.76109	0.00118
1194.79677	0.00117
1193.83244	0.00117
1192.86812	0.00116
1191.90380	0.00116
1190.93947	0.00116
1189.97515	0.00115
1189.01083	0.00115
1188.04650	0.00116
1187.08218	0.00116
1186.11786	0.00117
1185.15353	0.00117
1184.18921	0.00118
1183.22489	0.00120
1182.26056	0.00122
1181.29624	0.00124
1180.33192	0.00127
1179.36759	0.00131
1178.40327	0.00134
1177.43895	0.00137
1176.47462	0.00138
1175.51030	0.00139
1174.54598	0.00140
1173.58165	0.00140
1172.61733	0.00141
1171.65301	0.00142
1170.68868	0.00143
1169.72436	0.00143
1168.76003	0.00143
1167.79571	0.00143
1166.83139	0.00142
1165.86706	0.00142
1164.90274	0.00142
1163.93842	0.00142
1162.97409	0.00142
1162.00977	0.00143
1161.04545	0.00143
1160.08112	0.00143
1159.11680	0.00142
1158.15248	0.00142
1157.18815	0.00143
1156.22383	0.00143
1155.25951	0.00144
1154.29518	0.00144
1153.33086	0.00144
1152.36654	0.00144
1151.40221	0.00144
1150.43789	0.00144
1149.47357	0.00144
1148.50924	0.00144
1147.54492	0.00143
1146.58060	0.00140
1145.61627	0.00137
1144.65195	0.00134
1143.68762	0.00132
1142.72330	0.00132
1141.75898	0.00132
1140.79465	0.00133
1139.83033	0.00133
1138.86601	0.00133
1137.90168	0.00132
1136.93736	0.00130
1135.97304	0.00128
1135.00871	0.00126
1134.04439	0.00125
1133.08007	0.00124
1132.11574	0.00124
1131.15142	0.00124
1130.18710	0.00125
1129.22277	0.00125
1128.25845	0.00126
1127.29413	0.00125
1126.32980	0.00125
1125.36548	0.00124
1124.40116	0.00123
1123.43683	0.00123
1122.47251	0.00123
1121.50819	0.00123
1120.54386	0.00124
1119.57954	0.00124
1118.61521	0.00125
1117.65089	0.00126
1116.68657	0.00127
1115.72224	0.00128
1114.75792	0.00129
1113.79360	0.00130
1112.82927	0.00131
1111.86495	0.00131
1110.90063	0.00131
1109.93630	0.00131
1108.97198	0.00132
1108.00766	0.00132
1107.04333	0.00133
1106.07901	0.00134
1105.11469	0.00135
1104.15036	0.00136
1103.18604	0.00137
1102.22172	0.00137
1101.25739	0.00137
1100.29307	0.00137
1099.32875	0.00136
1098.36442	0.00136
1097.40010	0.00136
1096.43578	0.00136
1095.47145	0.00136
1094.50713	0.00137
1093.54280	0.00137
1092.57848	0.00138
1091.61416	0.00138
1090.64983	0.00138
1089.68551	0.00139
1088.72119	0.00139
1087.75686	0.00139
1086.79254	0.00139
1085.82822	0.00139
1084.86389	0.00139
1083.89957	0.00138
1082.93525	0.00137
1081.97092	0.00137
1081.00660	0.00136
1080.04228	0.00135
1079.07795	0.00134
1078.11363	0.00134
1077.14931	0.00134
1076.18498	0.00134
1075.22066	0.00134
1074.25634	0.00134
1073.29201	0.00135
1072.32769	0.00136
1071.36337	0.00137
1070.39904	0.00138
1069.43472	0.00138
1068.47039	0.00139
1067.50607	0.00140
1066.54175	0.00140
1065.57742	0.00140
1064.61310	0.00141
1063.64878	0.00141
1062.68445	0.00141
1061.72013	0.00141
1060.75581	0.00141
1059.79148	0.00141
1058.82716	0.00142
1057.86284	0.00142
1056.89851	0.00142
1055.93419	0.00141
1054.96987	0.00141
1054.00554	0.00140
1053.04122	0.00138
1052.07690	0.00137
1051.11257	0.00135
1050.14825	0.00133
1049.18393	0.00131
1048.21960	0.00129
1047.25528	0.00127
1046.29096	0.00125
1045.32663	0.00123
1044.36231	0.00121
1043.39798	0.00118
1042.43366	0.00116
1041.46934	0.00114
1040.50501	0.00113
1039.54069	0.00111
1038.57637	0.00109
1037.61204	0.00107
1036.64772	0.00106
1035.68340	0.00105
1034.71907	0.00105
1033.75475	0.00104
1032.79043	0.00104
1031.82610	0.00104
1030.86178	0.00104
1029.89746	0.00104
1028.93313	0.00104
1027.96881	0.00104
1027.00449	0.00103
1026.04016	0.00103
1025.07584	0.00103
1024.11152	0.00104
1023.14719	0.00104
1022.18287	0.00105
1021.21855	0.00106
1020.25422	0.00108
1019.28990	0.00110
1018.32557	0.00112
1017.36125	0.00113
1016.39693	0.00113
1015.43260	0.00113
1014.46828	0.00111
1013.50396	0.00109
1012.53963	0.00106
1011.57531	0.00104
1010.61099	0.00101
1009.64666	0.00099
1008.68234	0.00096
1007.71802	0.00094
1006.75369	0.00091
1005.78937	0.00089
1004.82505	0.00087
1003.86072	0.00086
1002.89640	0.00085
1001.93208	0.00086
1000.96775	0.00086
1000.00343	0.00087
999.03911	0.00088
998.07478	0.00088
997.11046	0.00089
996.14614	0.00089
995.18181	0.00089
994.21749	0.00089
993.25316	0.00089
992.28884	0.00089
991.32452	0.00090
990.36019	0.00090
989.39587	0.00090
988.43155	0.00090
987.46722	0.00090
986.50290	0.00090
985.53858	0.00089
984.57425	0.00087
983.60993	0.00086
982.64561	0.00084
981.68128	0.00082
980.71696	0.00081
979.75264	0.00080
978.78831	0.00079
977.82399	0.00078
976.85967	0.00077
975.89534	0.00076
974.93102	0.00075
973.96670	0.00075
973.00237	0.00075
972.03805	0.00075
971.07373	0.00075
970.10940	0.00075
969.14508	0.00075
968.18075	0.00074
967.21643	0.00074
966.25211	0.00073
965.28778	0.00072
964.32346	0.00072
963.35914	0.00071
962.39481	0.00072
961.43049	0.00072
960.46617	0.00072
959.50184	0.00072
958.53752	0.00071
957.57320	0.00071
956.60887	0.00070
955.64455	0.00070
954.68023	0.00069
953.71590	0.00068
952.75158	0.00068
951.78726	0.00067
950.82293	0.00066
949.85861	0.00066
948.89429	0.00066
947.92996	0.00065
946.96564	0.00064
946.00132	0.00062
945.03699	0.00060
944.07267	0.00059
943.10834	0.00057
942.14402	0.00056
941.17970	0.00056
940.21537	0.00056
939.25105	0.00055
938.28673	0.00055
937.32240	0.00053
936.35808	0.00053
935.39376	0.00053
934.42943	0.00053
933.46511	0.00055
932.50079	0.00056
931.53646	0.00057
930.57214	0.00057
929.60782	0.00058
928.64349	0.00059
927.67917	0.00060
926.71485	0.00061
925.75052	0.00063
924.78620	0.00064
923.82188	0.00065
922.85755	0.00066
921.89323	0.00066
920.92891	0.00066
919.96458	0.00066
919.00026	0.00064
918.03593	0.00062
917.07161	0.00060
916.10729	0.00060
915.14296	0.00061
914.17864	0.00063
913.21432	0.00066
912.24999	0.00068
911.28567	0.00070
910.32135	0.00071
909.35702	0.00071
908.39270	0.00071
907.42838	0.00071
906.46405	0.00071
905.49973	0.00070
904.53541	0.00068
903.57108	0.00065
902.60676	0.00064
901.64244	0.00065
900.67811	0.00068
899.71379	0.00073
